# Tuning file for Max/MSP coll objects. - Created using Scale Workshop 1.4.2
# ⵙᗱᗴᗯᗩ✤ꖴᴥ✤ⵙꗳⓄⵙᔓᔕИNⓄꖴᗝꖴᗯꖴᗝⵙᙁᗩᑎ¤ᗱᗴⵙ△꞉ⵙ◯ⵙ◯ⵙ꞉△ⵙᗱᗴ¤ᑎᗩᙁⵙᗝꖴᗯꖴᗝꖴⓄИNᔓᔕⵙⓄꗳⵙ✤ᴥꖴ✤ᗩᗯᗱᗴⵙ
#
# https://sevish.com/scaleworkshop/?name=%E2%B5%99%E1%97%B1%E1%97%B4%E1%97%AF%E1%97%A9%E2%9C%A4%EA%96%B4%E1%B4%A5%E2%9C%A4%E2%B5%99%EA%97%B3%E2%93%84%E2%B5%99%E1%94%93%E1%94%95%D0%98N%E2%93%84%EA%96%B4%E1%97%9D%EA%96%B4%E1%97%AF%EA%96%B4%E1%97%9D%E2%B5%99%E1%99%81%E1%97%A9%E1%91%8E%C2%A4%E1%97%B1%E1%97%B4%E2%B5%99%E2%96%B3%EA%9E%89%E2%B5%99%E2%97%AF%E2%B5%99%E2%97%AF%E2%B5%99%EA%9E%89%E2%96%B3%E2%B5%99%E1%97%B1%E1%97%B4%C2%A4%E1%91%8E%E1%97%A9%E1%99%81%E2%B5%99%E1%97%9D%EA%96%B4%E1%97%AF%EA%96%B4%E1%97%9D%EA%96%B4%E2%93%84%D0%98N%E1%94%93%E1%94%95%E2%B5%99%E2%93%84%EA%97%B3%E2%B5%99%E2%9C%A4%E1%B4%A5%EA%96%B4%E2%9C%A4%E1%97%A9%E1%97%AF%E1%97%B1%E1%97%B4%E2%B5%99&data=70.44277780982917%0A140.88555561965833%0A211.3283334294875%0A281.77111123931667%0A352.21388904914585%0A422.656666858975%0A493.09944466880415%0A563.5422224786333%0A633.9850002884625%0A704.4277780982917%0A774.8705559081209%0A845.31333371795%0A915.7561115277791%0A986.1988893376083%0A1056.6416671474376%0A1127.0844449572667%0A1197.5272227670957%0A1267.970000576925%0A1338.412778386754%0A1408.8555561965834%0A1479.2983340064125%0A1549.7411118162418%0A1620.1838896260708%0A1690.6266674359%0A1761.0694452457292%0A1831.5122230555583%0A1901.9550008653875&freq=233.1942602676632&midi=69&vert=1&horiz=3&colors=white%20black%20black%20white%20black%20black%20white%20black%20black%20white%20black%20black%20white%20black%20black%20white%20black%20black%20white%20black%20black%20white%20black%20black%20white%20black%20black&waveform=sine&ampenv=pad
#
0, 14.0736901;
1, 14.6581493;
2, 15.2668802;
3, 15.9008908;
4, 16.5612310;
5, 17.2489940;
6, 17.9653188;
7, 18.7113915;
8, 19.4884475;
9, 20.2977735;
10, 21.1407095;
11, 22.0186515;
12, 22.9330530;
13, 23.8854282;
14, 24.8773542;
15, 25.9104734;
16, 26.9864964;
17, 28.1072051;
18, 29.2744551;
19, 30.4901793;
20, 31.7563906;
21, 33.0751858;
22, 34.4487486;
23, 35.8793534;
24, 37.3693691;
25, 38.9212629;
26, 40.5376044;
27, 42.2210703;
28, 43.9744479;
29, 45.8006407;
30, 47.7026725;
31, 49.6836929;
32, 51.7469820;
33, 53.8959565;
34, 56.1341746;
35, 58.4653426;
36, 60.8933205;
37, 63.4221286;
38, 66.0559544;
39, 68.7991590;
40, 71.6562847;
41, 74.6320626;
42, 77.7314201;
43, 80.9594892;
44, 84.3216152;
45, 87.8233653;
46, 91.4705378;
47, 95.2691718;
48, 99.2255575;
49, 103.3462458;
50, 107.6380602;
51, 112.1081072;
52, 116.7637886;
53, 121.6128133;
54, 126.6632108;
55, 131.9233438;
56, 137.4019221;
57, 143.1080176;
58, 149.0510787;
59, 155.2409461;
60, 161.6878695;
61, 168.4025239;
62, 175.3960278;
63, 182.6799614;
64, 190.2663859;
65, 198.1678631;
66, 206.3974769;
67, 214.9688541;
68, 223.8961878;
69, 233.1942603;
70, 242.8784677;
71, 252.9648457;
72, 263.4700959;
73, 274.4116133;
74, 285.8075155;
75, 297.6766724;
76, 310.0387375;
77, 322.9141807;
78, 336.3243217;
79, 350.2913657;
80, 364.8384400;
81, 379.9896325;
82, 395.7700313;
83, 412.2057664;
84, 429.3240528;
85, 447.1532360;
86, 465.7228383;
87, 485.0636084;
88, 505.2075716;
89, 526.1880834;
90, 548.0398842;
91, 570.7991576;
92, 594.5035894;
93, 619.1924307;
94, 644.9065624;
95, 671.6885635;
96, 699.5827808;
97, 728.6354031;
98, 758.8945371;
99, 790.4102876;
100, 823.2348398;
101, 857.4225464;
102, 893.0300171;
103, 930.1162126;
104, 968.7425421;
105, 1008.9729650;
106, 1050.8740970;
107, 1094.5153201;
108, 1139.9688976;
109, 1187.3100940;
110, 1236.6172991;
111, 1287.9721584;
112, 1341.4597079;
113, 1397.1685150;
114, 1455.1908252;
115, 1515.6227148;
116, 1578.5642501;
117, 1644.1196527;
118, 1712.3974728;
119, 1783.5107683;
120, 1857.5772920;
121, 1934.7196873;
122, 2015.0656904;
123, 2098.7483424;
124, 2185.9062092;
125, 2276.6836114;
126, 2371.2308627;
127, 2469.7045194;
